# time, ED spin correlation, NQS spin correlation
-1.000000000000000021e-03, -5.000000000000003331e-01, -5.000000000000002220e-01
0.000000000000000000e+00, -5.000119998080013728e-01, -5.000123119763739687e-01
1.000000000000000021e-03, -5.000479969280784420e-01, -5.000479732283182877e-01
2.000000000000000042e-03, -5.001079844488953707e-01, -5.001062591633202992e-01
3.000000000000000062e-03, -5.001919508530322522e-01, -5.001875556663224476e-01
4.000000000000000083e-03, -5.002998800191976736e-01, -5.002921093124996776e-01
5.000000000000000104e-03, -5.004317512253230182e-01, -5.004200498337504355e-01
6.000000000000000125e-03, -5.005875391525415052e-01, -5.005714459255875548e-01
7.000000000000000146e-03, -5.007672138900501890e-01, -5.007463314870507221e-01
8.000000000000000167e-03, -5.009707409408515888e-01, -5.009447182345904137e-01
9.000000000000001055e-03, -5.011980812283766129e-01, -5.011666022884893046e-01
1.000000000000000021e-02, -5.014491911039891114e-01, -5.014119678882075215e-01
1.099999999999999936e-02, -5.017240223553638412e-01, -5.016807896292321267e-01
1.200000000000000025e-02, -5.020225222157448375e-01, -5.019730338849051066e-01
1.300000000000000114e-02, -5.023446333740759773e-01, -5.022886597524035546e-01
1.400000000000000029e-02, -5.026902939860045105e-01, -5.026276197071376517e-01
1.499999999999999944e-02, -5.030594376857545624e-01, -5.029898600710351886e-01
1.600000000000000033e-02, -5.034519935988699402e-01, -5.033753213578420205e-01
1.700000000000000122e-02, -5.038678863558214704e-01, -5.037839385346947196e-01
1.800000000000000211e-02, -5.043070361064772023e-01, -5.042156412252405406e-01
1.899999999999999953e-02, -5.047693585354339207e-01, -5.046703538710245462e-01
2.000000000000000042e-02, -5.052547648782057532e-01, -5.051479958625305633e-01
2.100000000000000130e-02, -5.057631619382660926e-01, -5.056484816477817557e-01
2.199999999999999872e-02, -5.062944521049409508e-01, -5.061717208241203192e-01
2.299999999999999961e-02, -5.068485333721507446e-01, -5.067176182172321575e-01
2.400000000000000050e-02, -5.074252993579939641e-01, -5.072860739504030381e-01
2.500000000000000139e-02, -5.080246393251733883e-01, -5.078769835062274529e-01
2.600000000000000228e-02, -5.086464382022559683e-01, -5.084902377824710440e-01
2.699999999999999969e-02, -5.092905766057680417e-01, -5.091257231433636843e-01
2.800000000000000058e-02, -5.099569308631146658e-01, -5.097833214673329616e-01
2.900000000000000147e-02, -5.106453730363255117e-01, -5.104629101919563317e-01
2.999999999999999889e-02, -5.113557709466183265e-01, -5.111643623567521111e-01
3.099999999999999978e-02, -5.120879881997764116e-01, -5.118875466442999178e-01
3.200000000000000067e-02, -5.128418842123366739e-01, -5.126323274200879077e-01
3.300000000000000155e-02, -5.136173142385807022e-01, -5.133985647714078837e-01
3.400000000000000244e-02, -5.144141293983253149e-01, -5.141861145455541848e-01
3.500000000000000333e-02, -5.152321767055080270e-01, -5.149948283875436239e-01
3.600000000000000422e-02, -5.160712990975586667e-01, -5.158245537775308920e-01
3.699999999999999817e-02, -5.169313354655556969e-01, -5.166751340680645344e-01
3.799999999999999906e-02, -5.178121206851586944e-01, -5.175464085213017373e-01
3.899999999999999994e-02, -5.187134856483108791e-01, -5.184382123462887293e-01
4.000000000000000083e-02, -5.196352572957084748e-01, -5.193503767363812917e-01
4.100000000000000172e-02, -5.205772586500270194e-01, -5.202827289068867600e-01
4.200000000000000261e-02, -5.215393088499001850e-01, -5.212350921329760300e-01
4.300000000000000350e-02, -5.225212231846446675e-01, -5.222072857879236363e-01
4.399999999999999745e-02, -5.235228131297252618e-01, -5.231991253817107612e-01
4.499999999999999833e-02, -5.245438863829489096e-01, -5.242104226000340317e-01
4.599999999999999922e-02, -5.255842469013880525e-01, -5.252409853437395304e-01
4.700000000000000011e-02, -5.266436949390187472e-01, -5.262906177687176612e-01
4.800000000000000100e-02, -5.277220270850726536e-01, -5.273591203262684157e-01
4.900000000000000189e-02, -5.288190363030897956e-01, -5.284462898039624656e-01
5.000000000000000278e-02, -5.299345119706707630e-01, -5.295519193670071845e-01
5.100000000000000366e-02, -5.310682399199140313e-01, -5.306757986001312544e-01
5.200000000000000455e-02, -5.322200024785364025e-01, -5.318177135499934094e-01
5.299999999999999850e-02, -5.333895785116644639e-01, -5.329774467681261951e-01
5.399999999999999939e-02, -5.345767434642929583e-01, -5.341547773544171873e-01
5.500000000000000028e-02, -5.357812694043977420e-01, -5.353494810011324434e-01
5.600000000000000117e-02, -5.370029250666987775e-01, -5.365613300374829642e-01
5.700000000000000205e-02, -5.382414758970616164e-01, -5.377900934747363859e-01
5.800000000000000294e-02, -5.394966840975318201e-01, -5.390355370518730149e-01
5.900000000000000383e-02, -5.407683086719908827e-01, -5.402974232817874256e-01
5.999999999999999778e-02, -5.420561054724266636e-01, -5.415755114980292939e-01
6.099999999999999867e-02, -5.433598272458098899e-01, -5.428695579020837991e-01
6.199999999999999956e-02, -5.446792236815647392e-01, -5.441793156111875973e-01
6.300000000000000044e-02, -5.460140414596287295e-01, -5.455045347066777017e-01
6.400000000000000133e-02, -5.473640242990893690e-01, -5.468449622828632783e-01
6.500000000000000222e-02, -5.487289130073884635e-01, -5.482003424964252414e-01
6.600000000000000311e-02, -5.501084455300868647e-01, -5.495704166163236648e-01
6.700000000000000400e-02, -5.515023570011778897e-01, -5.509549230742238901e-01
6.800000000000000488e-02, -5.529103797939415310e-01, -5.523535975154182376e-01
6.900000000000000577e-02, -5.543322435723269104e-01, -5.537661728502508707e-01
7.000000000000000666e-02, -5.557676753428564265e-01, -5.551923793060258294e-01
7.100000000000000755e-02, -5.572163995070396059e-01, -5.566319444794012306e-01
7.200000000000000844e-02, -5.586781379142875537e-01, -5.580845933892560895e-01
7.299999999999999545e-02, -5.601526099153164573e-01, -5.595500485300254345e-01
7.399999999999999634e-02, -5.616395324160318170e-01, -5.610280299254869485e-01
7.499999999999999722e-02, -5.631386199318811903e-01, -5.625182551830041344e-01
7.599999999999999811e-02, -5.646495846426664578e-01, -5.640204395482024680e-01
7.699999999999999900e-02, -5.661721364478051743e-01, -5.655342959600847541e-01
7.799999999999999989e-02, -5.677059830220277936e-01, -5.670595351065603751e-01
7.900000000000000078e-02, -5.692508298715041049e-01, -5.685958654803952017e-01
8.000000000000000167e-02, -5.708063803903848932e-01, -5.701429934355575213e-01
8.100000000000000255e-02, -5.723723359177488312e-01, -5.717006232439600932e-01
8.200000000000000344e-02, -5.739483957949456094e-01, -5.732684571525880068e-01
8.300000000000000433e-02, -5.755342574233200947e-01, -5.748461954409953556e-01
8.400000000000000522e-02, -5.771296163223116338e-01, -5.764335364791712824e-01
8.500000000000000611e-02, -5.787341661879122912e-01, -5.780301767857537465e-01
8.600000000000000699e-02, -5.803475989514769173e-01, -5.796358110865843516e-01
8.700000000000000788e-02, -5.819696048388719456e-01, -5.812501323736039005e-01
8.799999999999999489e-02, -5.835998724299489293e-01, -5.828728319640585909e-01
8.899999999999999578e-02, -5.852380887183394886e-01, -5.845035995600266210e-01
8.999999999999999667e-02, -5.868839391715477971e-01, -5.861421233082348969e-01
9.099999999999999756e-02, -5.885371077913437166e-01, -5.877880898601750559e-01
9.199999999999999845e-02, -5.901972771744301571e-01, -5.894411844324836114e-01
9.299999999999999933e-02, -5.918641285733863278e-01, -5.911010908676026521e-01
9.400000000000000022e-02, -5.935373419578631182e-01, -5.927674916946880090e-01
9.500000000000000111e-02, -5.952165960760313901e-01, -5.944400681907620054e-01
9.600000000000000200e-02, -5.969015685162590845e-01, -5.961185004420982425e-01
9.700000000000000289e-02, -5.985919357690138165e-01, -5.978024674058296517e-01
9.800000000000000377e-02, -6.002873732889759673e-01, -5.994916469717663787e-01
9.900000000000000466e-02, -6.019875555573500625e-01, -6.011857160244092890e-01
1.000000000000000056e-01, -6.036921561443630013e-01, -6.028843505051498797e-01
1.010000000000000064e-01, -6.054008477719390324e-01, -6.045872254746480490e-01
1.020000000000000073e-01, -6.071133023765342696e-01, -6.062940151753687390e-01
1.030000000000000082e-01, -6.088291911721260830e-01, -6.080043930942740094e-01
1.040000000000000091e-01, -6.105481847133367168e-01, -6.097180320256483377e-01
1.049999999999999961e-01, -6.122699529586861367e-01, -6.114346041340539273e-01
1.059999999999999970e-01, -6.139941653339608951e-01, -6.131537810174069181e-01
1.069999999999999979e-01, -6.157204907956823625e-01, -6.148752337701474113e-01
1.079999999999999988e-01, -6.174485978946643305e-01, -6.165986330465083043e-01
1.089999999999999997e-01, -6.191781548396529944e-01, -6.183236491238580657e-01
1.100000000000000006e-01, -6.209088295610275532e-01, -6.200499519661165637e-01
1.110000000000000014e-01, -6.226402897745585419e-01, -6.217772112872204104e-01
1.120000000000000023e-01, -6.243722030452039107e-01, -6.235050966146363782e-01
1.130000000000000032e-01, -6.261042368509358580e-01, -6.252332773529017951e-01
1.140000000000000041e-01, -6.278360586465845383e-01, -6.269614228471849238e-01
1.150000000000000050e-01, -6.295673359276854342e-01, -6.286892024468533346e-01
1.160000000000000059e-01, -6.312977362943191784e-01, -6.304162855690375045e-01
1.170000000000000068e-01, -6.330269275149308372e-01, -6.321423417621739871e-01
1.180000000000000077e-01, -6.347545775901179965e-01, -6.338670407695177200e-01
1.190000000000000085e-01, -6.364803548163739944e-01, -6.355900525926191369e-01
1.199999999999999956e-01, -6.382039278497726453e-01, -6.373110475547398845e-01
1.209999999999999964e-01, -6.399249657695860183e-01, -6.390296963642022599e-01
1.219999999999999973e-01, -6.416431381418210567e-01, -6.407456701776707009e-01
1.229999999999999982e-01, -6.433581150826601647e-01, -6.424586406633263636e-01
1.239999999999999991e-01, -6.450695673217992088e-01, -6.441682800639506601e-01
1.250000000000000000e-01, -6.467771662656659482e-01, -6.458742612598886712e-01
1.260000000000000009e-01, -6.484805840605087912e-01, -6.475762578318915441e-01
1.270000000000000018e-01, -6.501794936553437765e-01, -6.492739441238100095e-01
1.280000000000000027e-01, -6.518735688647477877e-01, -6.509669953051441249e-01
1.290000000000000036e-01, -6.535624844314846804e-01, -6.526550874334268171e-01
1.300000000000000044e-01, -6.552459160889543277e-01, -6.543378975164314548e-01
1.310000000000000053e-01, -6.569235406234493757e-01, -6.560151035741936809e-01
1.320000000000000062e-01, -6.585950359362131579e-01, -6.576863847008352915e-01
1.330000000000000071e-01, -6.602600811052807828e-01, -6.593514211261704006e-01
1.340000000000000080e-01, -6.619183564470945136e-01, -6.610098942770973318e-01
1.350000000000000089e-01, -6.635695435778827811e-01, -6.626614868387468160e-01
1.360000000000000098e-01, -6.652133254747887303e-01, -6.643058828153882711e-01
1.370000000000000107e-01, -6.668493865367381979e-01, -6.659427675910779554e-01
1.380000000000000115e-01, -6.684774126450332421e-01, -6.675718279900315633e-01
1.390000000000000124e-01, -6.700970912236621224e-01, -6.691927523367208197e-01
1.400000000000000133e-01, -6.717081112993135150e-01, -6.708052305156717576e-01
1.410000000000000142e-01, -6.733101635610818647e-01, -6.724089540309589053e-01
1.420000000000000151e-01, -6.749029404198539916e-01, -6.740036160653838371e-01
1.430000000000000160e-01, -6.764861360673666280e-01, -6.755889115393225453e-01
1.440000000000000169e-01, -6.780594465349187860e-01, -6.771645371692351922e-01
1.449999999999999900e-01, -6.796225697517335185e-01, -6.787301915258256990e-01
1.459999999999999909e-01, -6.811752056029554137e-01, -6.802855750918325173e-01
1.469999999999999918e-01, -6.827170559872710598e-01, -6.818303903194541382e-01
1.479999999999999927e-01, -6.842478248741425961e-01, -6.833643416873810272e-01
1.489999999999999936e-01, -6.857672183606462468e-01, -6.848871357574419783e-01
1.499999999999999944e-01, -6.872749447279005164e-01, -6.863984812308314698e-01
1.509999999999999953e-01, -6.887707144970742767e-01, -6.878980890039280149e-01
1.519999999999999962e-01, -6.902542404849673074e-01, -6.893856722236785251e-01
1.529999999999999971e-01, -6.917252378591466355e-01, -6.908609463425453567e-01
1.539999999999999980e-01, -6.931834241926357887e-01, -6.923236291730016090e-01
1.549999999999999989e-01, -6.946285195181379768e-01, -6.937734409415678982e-01
1.559999999999999998e-01, -6.960602463817899821e-01, -6.952101043423734028e-01
1.570000000000000007e-01, -6.974783298964326583e-01, -6.966333445902372912e-01
1.580000000000000016e-01, -6.988824977943871586e-01, -6.980428894732589873e-01
1.590000000000000024e-01, -7.002724804797305636e-01, -6.994384694049028406e-01
1.600000000000000033e-01, -7.016480110800574765e-01, -7.008198174755724263e-01
1.610000000000000042e-01, -7.030088254977182594e-01, -7.021866695036590444e-01
1.620000000000000051e-01, -7.043546624605250273e-01, -7.035387640860620850e-01
1.630000000000000060e-01, -7.056852635719155220e-01, -7.048758426481617212e-01
1.640000000000000069e-01, -7.070003733605634277e-01, -7.061976494932425963e-01
1.650000000000000078e-01, -7.082997393294296895e-01, -7.075039318513528519e-01
1.660000000000000087e-01, -7.095831120042400686e-01, -7.087944399275948326e-01
1.670000000000000095e-01, -7.108502449813831614e-01, -7.100689269498319245e-01
1.680000000000000104e-01, -7.121008949752201111e-01, -7.113271492158060871e-01
1.690000000000000113e-01, -7.133348218647940220e-01, -7.125688661396576418e-01
1.700000000000000122e-01, -7.145517887399328583e-01, -7.137938402978321051e-01
1.710000000000000131e-01, -7.157515619467347268e-01, -7.150018374743768446e-01
1.720000000000000140e-01, -7.169339111324301017e-01, -7.161926267056053508e-01
1.730000000000000149e-01, -7.180986092896068929e-01, -7.173659803241295707e-01
1.740000000000000158e-01, -7.192454327997972463e-01, -7.185216740022503101e-01
1.750000000000000167e-01, -7.203741614764100909e-01, -7.196594867946918272e-01
1.759999999999999898e-01, -7.214845786070072098e-01, -7.207792011806846144e-01
1.769999999999999907e-01, -7.225764709949104025e-01, -7.218806031053708328e-01
1.779999999999999916e-01, -7.236496290001355192e-01, -7.229634820205432799e-01
1.789999999999999925e-01, -7.247038465796424855e-01, -7.240276309246937991e-01
1.799999999999999933e-01, -7.257389213268942152e-01, -7.250728464023762365e-01
1.809999999999999942e-01, -7.267546545107191891e-01, -7.260989286628692918e-01
1.819999999999999951e-01, -7.277508511134664904e-01, -7.271056815781312688e-01
1.829999999999999960e-01, -7.287273198684482978e-01, -7.280929127200519435e-01
1.839999999999999969e-01, -7.296838732966639540e-01, -7.290604333969701312e-01
1.849999999999999978e-01, -7.306203277427933962e-01, -7.300080586894791557e-01
1.859999999999999987e-01, -7.315365034104595043e-01, -7.309356074854931329e-01
1.869999999999999996e-01, -7.324322243967491541e-01, -7.318429025145746225e-01
1.880000000000000004e-01, -7.333073187259842030e-01, -7.327297703815212060e-01
1.890000000000000013e-01, -7.341616183827417430e-01, -7.335960415991971129e-01
1.900000000000000022e-01, -7.349949593441120754e-01, -7.344415506206077859e-01
1.910000000000000031e-01, -7.358071816111908525e-01, -7.352661358702191619e-01
1.920000000000000040e-01, -7.365981292397976166e-01, -7.360696397745021269e-01
1.930000000000000049e-01, -7.373676503704174046e-01, -7.368519087917064780e-01
1.940000000000000058e-01, -7.381155972573574253e-01, -7.376127934408607256e-01
1.950000000000000067e-01, -7.388418262971130357e-01, -7.383521483299856358e-01
1.960000000000000075e-01, -7.395461980559394632e-01, -7.390698321835227347e-01
1.970000000000000084e-01, -7.402285772966226141e-01, -7.397657078689710008e-01
1.980000000000000093e-01, -7.408888330044447468e-01, -7.404396424227289719e-01
1.990000000000000102e-01, -7.415268384123383516e-01, -7.410915070751381561e-01
2.000000000000000111e-01, -7.421424710252249035e-01, -7.417211772747214216e-01
2.010000000000000120e-01, -7.427356126435341599e-01, -7.423285327116188048e-01
2.020000000000000129e-01, -7.433061493858972302e-01, -7.429134573402090824e-01
2.030000000000000138e-01, -7.438539717110124183e-01, -7.434758394009208793e-01
2.040000000000000147e-01, -7.443789744386761775e-01, -7.440155714412273191e-01
2.050000000000000155e-01, -7.448810567699775120e-01, -7.445325503358227737e-01
2.060000000000000164e-01, -7.453601223066510517e-01, -7.450266773059773806e-01
2.070000000000000173e-01, -7.458160790695856912e-01, -7.454978579380676651e-01
2.080000000000000182e-01, -7.462488395164836863e-01, -7.459460022012819325e-01
2.089999999999999913e-01, -7.466583205586687644e-01, -7.463710244644969904e-01
2.099999999999999922e-01, -7.470444435770383640e-01, -7.467728435123257569e-01
2.109999999999999931e-01, -7.474071344371592263e-01, -7.471513825603299797e-01
2.119999999999999940e-01, -7.477463235035004541e-01, -7.475065692694067288e-01
2.129999999999999949e-01, -7.480619456528031508e-01, -7.478383357593280101e-01
2.139999999999999958e-01, -7.483539402865846402e-01, -7.481466186214563718e-01
2.149999999999999967e-01, -7.486222513427719383e-01, -7.484313589306149650e-01
2.159999999999999976e-01, -7.488668273064661429e-01, -7.486925022561209397e-01
2.169999999999999984e-01, -7.490876212198342987e-01, -7.489299986719784030e-01
2.179999999999999993e-01, -7.492845906911229648e-01, -7.491438027662317145e-01
2.190000000000000002e-01, -7.494576979027989250e-01, -7.493338736494759011e-01
2.200000000000000011e-01, -7.496069096188089365e-01, -7.495001749625237464e-01
2.210000000000000020e-01, -7.497321971909619576e-01, -7.496426748832307752e-01
2.220000000000000029e-01, -7.498335365644293038e-01, -7.497613461324755812e-01
2.230000000000000038e-01, -7.499109082823623984e-01, -7.498561659792951639e-01
2.240000000000000047e-01, -7.499642974896293390e-01, -7.499271162451777162e-01
2.250000000000000056e-01, -7.499936939356657284e-01, -7.499741833075039832e-01
2.260000000000000064e-01, -7.499990919764447650e-01, -7.499973581021504021e-01
2.270000000000000073e-01, -7.499804905755588225e-01, -7.499966361252388136e-01
2.280000000000000082e-01, -7.499378933044205109e-01, -7.499720174340438472e-01
2.290000000000000091e-01, -7.498713083415741165e-01, -7.499235066470529842e-01
2.300000000000000100e-01, -7.497807484711284109e-01, -7.498511129431771893e-01
2.310000000000000109e-01, -7.496662310803002827e-01, -7.497548500601183274e-01
2.320000000000000118e-01, -7.495277781560769625e-01, -7.496347362918852619e-01
2.330000000000000127e-01, -7.493654162809947339e-01, -7.494907944854668491e-01
2.340000000000000135e-01, -7.491791766280343490e-01, -7.493230520366546132e-01
2.350000000000000144e-01, -7.489690949546374821e-01, -7.491315408850215407e-01
2.360000000000000153e-01, -7.487352115958402221e-01, -7.489162975080501106e-01
2.370000000000000162e-01, -7.484775714565282678e-01, -7.486773629144204412e-01
2.380000000000000171e-01, -7.481962240028176003e-01, -7.484147826364463407e-01
2.390000000000000180e-01, -7.478912232525545267e-01, -7.481286067216706970e-01
2.399999999999999911e-01, -7.475626277649464191e-01, -7.478188897236131005e-01
2.409999999999999920e-01, -7.472105006293175977e-01, -7.474856906916750310e-01
2.419999999999999929e-01, -7.468349094529957988e-01, -7.471290731602022728e-01
2.429999999999999938e-01, -7.464359263483338891e-01, -7.467491051367051158e-01
2.439999999999999947e-01, -7.460136279188612773e-01, -7.463458590892365629e-01
2.449999999999999956e-01, -7.455680952445800092e-01, -7.459194119329316530e-01
2.459999999999999964e-01, -7.450994138663949995e-01, -7.454698450157095646e-01
2.469999999999999973e-01, -7.446076737696902814e-01, -7.449972441031366133e-01
