# time, ED spin correlation, NQS spin correlation
-1.000000000000000021e-03, -5.000000000000003331e-01, -5.000000000000002220e-01
0.000000000000000000e+00, -4.999772003295340772e-01, -4.999834939048437010e-01
1.000000000000000021e-03, -4.999088052724539044e-01, -4.999237964724002059e-01
2.000000000000000042e-03, -4.997948266910266502e-01, -4.998201501011417247e-01
3.000000000000000062e-03, -4.996352843534119792e-01, -4.996721855864013628e-01
4.000000000000000083e-03, -4.994302059302330732e-01, -4.994797175287688518e-01
5.000000000000000104e-03, -4.991796269897775251e-01, -4.992426475406379072e-01
6.000000000000000125e-03, -4.988835909918281630e-01, -4.989609244927472598e-01
7.000000000000000146e-03, -4.985421492801269672e-01, -4.986345278624542132e-01
8.000000000000000167e-03, -4.981553610734683613e-01, -4.982634594970176134e-01
9.000000000000001055e-03, -4.977232934554295385e-01, -4.978477390172317829e-01
1.000000000000000021e-02, -4.972460213627343806e-01, -4.973874010201865259e-01
1.099999999999999936e-02, -4.967236275722586858e-01, -4.968824932629056224e-01
1.200000000000000025e-02, -4.961562026866719877e-01, -4.963330754218908680e-01
1.300000000000000114e-02, -4.955438451187240689e-01, -4.957392182108043555e-01
1.400000000000000029e-02, -4.948866610741765037e-01, -4.951010027313141326e-01
1.499999999999999944e-02, -4.941847645333823924e-01, -4.944185199814785103e-01
1.600000000000000033e-02, -4.934382772315182297e-01, -4.936918704738816333e-01
1.700000000000000122e-02, -4.926473286374705163e-01, -4.929211639322257366e-01
1.800000000000000211e-02, -4.918120559313807205e-01, -4.921065190452197369e-01
1.899999999999999953e-02, -4.909326039808532549e-01, -4.912480632630811250e-01
2.000000000000000042e-02, -4.900091253158292970e-01, -4.903459326262361584e-01
2.100000000000000130e-02, -4.890417801021340605e-01, -4.894002716186522384e-01
2.199999999999999872e-02, -4.880307361136962396e-01, -4.884112330402464175e-01
2.299999999999999961e-02, -4.869761687034510067e-01, -4.873789778941733930e-01
2.400000000000000050e-02, -4.858782607729261738e-01, -4.863036752858305722e-01
2.500000000000000139e-02, -4.847372027405211781e-01, -4.851855023311317239e-01
2.600000000000000228e-02, -4.835531925084806670e-01, -4.840246440721334698e-01
2.699999999999999969e-02, -4.823264354285713429e-01, -4.828212933985284727e-01
2.800000000000000058e-02, -4.810571442664656749e-01, -4.815756509737960100e-01
2.900000000000000147e-02, -4.797455391648412504e-01, -4.802879251650650771e-01
2.999999999999999889e-02, -4.783918476051990387e-01, -4.789583319759080360e-01
3.099999999999999978e-02, -4.769963043684099513e-01, -4.775870949814358113e-01
3.200000000000000067e-02, -4.755591514939941367e-01, -4.761744452651848203e-01
3.300000000000000155e-02, -4.740806382381437811e-01, -4.747206213573546552e-01
3.400000000000000244e-02, -4.725610210304916348e-01, -4.732258691740590106e-01
3.500000000000000333e-02, -4.710005634296370314e-01, -4.716904419572836016e-01
3.600000000000000422e-02, -4.693995360774342318e-01, -4.701146002153067660e-01
3.699999999999999817e-02, -4.677582166520542484e-01, -4.684986116633827469e-01
3.799999999999999906e-02, -4.660768898198233701e-01, -4.668427511644951955e-01
3.899999999999999994e-02, -4.643558471858528769e-01, -4.651473006700546642e-01
4.000000000000000083e-02, -4.625953872434629965e-01, -4.634125491603951486e-01
4.100000000000000172e-02, -4.607958153224129827e-01, -4.616387925849718687e-01
4.200000000000000261e-02, -4.589574435359456972e-01, -4.598263338021708058e-01
4.300000000000000350e-02, -4.570805907266553003e-01, -4.579754825186397871e-01
4.399999999999999745e-02, -4.551655824111884296e-01, -4.560865552280946034e-01
4.499999999999999833e-02, -4.532127507237865283e-01, -4.541598751495277697e-01
4.599999999999999922e-02, -4.512224343586823672e-01, -4.521957721647733019e-01
4.700000000000000011e-02, -4.491949785113570348e-01, -4.501945827553885393e-01
4.800000000000000100e-02, -4.471307348186703279e-01, -4.481566499388318081e-01
4.900000000000000189e-02, -4.450300612978737025e-01, -4.460823232038725328e-01
5.000000000000000278e-02, -4.428933222845166662e-01, -4.439719584452481715e-01
5.100000000000000366e-02, -4.407208883692574908e-01, -4.418259178975234569e-01
5.200000000000000455e-02, -4.385131363335882937e-01, -4.396445700681347879e-01
5.299999999999999850e-02, -4.362704490844883098e-01, -4.374282896696172207e-01
5.399999999999999939e-02, -4.339932155880120712e-01, -4.351774575510022891e-01
5.500000000000000028e-02, -4.316818308018283146e-01, -4.328924606283585108e-01
5.600000000000000117e-02, -4.293366956067203866e-01, -4.305736918145007808e-01
5.700000000000000205e-02, -4.269582167370577497e-01, -4.282215499478344012e-01
5.800000000000000294e-02, -4.245468067102537435e-01, -4.258364397203397433e-01
5.900000000000000383e-02, -4.221028837552179835e-01, -4.234187716047224104e-01
5.999999999999999778e-02, -4.196268717398216608e-01, -4.209689617806743334e-01
6.099999999999999867e-02, -4.171192000973818481e-01, -4.184874320603028663e-01
6.199999999999999956e-02, -4.145803037521819667e-01, -4.159746098127055092e-01
6.300000000000000044e-02, -4.120106230440398476e-01, -4.134309278876883154e-01
6.400000000000000133e-02, -4.094106036519359337e-01, -4.108568245386389206e-01
6.500000000000000222e-02, -4.067806965167160005e-01, -4.082527433445752307e-01
6.600000000000000311e-02, -4.041213577628809395e-01, -4.056191331313454551e-01
6.700000000000000400e-02, -4.014330486194777059e-01, -4.029564478920249493e-01
6.800000000000000488e-02, -3.987162353401053072e-01, -4.002651467064711199e-01
6.900000000000000577e-02, -3.959713891220484339e-01, -3.975456936600955671e-01
7.000000000000000666e-02, -3.931989860245544421e-01, -3.947985577618153830e-01
7.100000000000000755e-02, -3.903995068862668449e-01, -3.920242128612256849e-01
7.200000000000000844e-02, -3.875734372418299101e-01, -3.892231375650099801e-01
7.299999999999999545e-02, -3.847212672376780218e-01, -3.863958151525420104e-01
7.399999999999999634e-02, -3.818434915470272917e-01, -3.835427334907640096e-01
7.499999999999999722e-02, -3.789406092840793550e-01, -3.806643849483070663e-01
7.599999999999999811e-02, -3.760131239174571149e-01, -3.777612663088770195e-01
7.699999999999999900e-02, -3.730615431828839812e-01, -3.748338786839122139e-01
7.799999999999999989e-02, -3.700863789951236993e-01, -3.718827274245475323e-01
7.900000000000000078e-02, -3.670881473591949828e-01, -3.689083220328623902e-01
8.000000000000000167e-02, -3.640673682808767131e-01, -3.659111760724507167e-01
8.100000000000000255e-02, -3.610245656765199151e-01, -3.628918070783292982e-01
8.200000000000000344e-02, -3.579602672821810549e-01, -3.598507364661738261e-01
8.300000000000000433e-02, -3.548750045620915339e-01, -3.567884894409233953e-01
8.400000000000000522e-02, -3.517693126164836426e-01, -3.537055949047425152e-01
8.500000000000000611e-02, -3.486437300887834101e-01, -3.506025853643791046e-01
8.600000000000000699e-02, -3.454987990721891111e-01, -3.474799968379087001e-01
8.700000000000000788e-02, -3.423350650156527508e-01, -3.443383687609092858e-01
8.799999999999999489e-02, -3.391530766292782939e-01, -3.411782438920470950e-01
8.899999999999999578e-02, -3.359533857891548458e-01, -3.380001682181159595e-01
8.999999999999999667e-02, -3.327365474416412172e-01, -3.348046908585198267e-01
9.099999999999999756e-02, -3.295031195071160823e-01, -3.315923639692474612e-01
9.199999999999999845e-02, -3.262536627832150482e-01, -3.283637426463291709e-01
9.299999999999999933e-02, -3.229887408475667354e-01, -3.251193848287835531e-01
9.400000000000000022e-02, -3.197089199600470777e-01, -3.218598512010997226e-01
9.500000000000000111e-02, -3.164147689645692707e-01, -3.185857050952510816e-01
9.600000000000000200e-02, -3.131068591904241361e-01, -3.152975123922564515e-01
9.700000000000000289e-02, -3.097857643531907734e-01, -3.119958414233078292e-01
9.800000000000000377e-02, -3.064520604552326555e-01, -3.086812628704891370e-01
9.900000000000000466e-02, -3.031063256857968735e-01, -3.053543496670798052e-01
1.000000000000000056e-01, -2.997491403207348526e-01, -3.020156768974812111e-01
1.010000000000000064e-01, -2.963810866218605788e-01, -2.986658216967787993e-01
1.020000000000000073e-01, -2.930027487359647687e-01, -2.953053631499439891e-01
1.030000000000000082e-01, -2.896147125935014666e-01, -2.919348821907032376e-01
1.040000000000000091e-01, -2.862175658069664452e-01, -2.885549615000903567e-01
1.049999999999999961e-01, -2.828118975689821735e-01, -2.851661854046880773e-01
1.059999999999999970e-01, -2.793982985501108907e-01, -2.817691397745863968e-01
1.069999999999999979e-01, -2.759773607964090547e-01, -2.783644119210731960e-01
1.079999999999999988e-01, -2.725496776267452570e-01, -2.749525904940685050e-01
1.089999999999999997e-01, -2.691158435298963147e-01, -2.715342653793266225e-01
1.100000000000000006e-01, -2.656764540614395820e-01, -2.681100275953990364e-01
1.110000000000000014e-01, -2.622321057404631284e-01, -2.646804691904277584e-01
1.120000000000000023e-01, -2.587833959461054434e-01, -2.612461831387091760e-01
1.130000000000000032e-01, -2.553309228139479803e-01, -2.578077632371222894e-01
1.140000000000000041e-01, -2.518752851322765274e-01, -2.543658040013732080e-01
1.150000000000000050e-01, -2.484170822382278654e-01, -2.509209005621321209e-01
1.160000000000000059e-01, -2.449569139138431106e-01, -2.474736485610193049e-01
1.170000000000000068e-01, -2.414953802820425099e-01, -2.440246440464977629e-01
1.180000000000000077e-01, -2.380330817025420875e-01, -2.405744833696818463e-01
1.190000000000000085e-01, -2.345706186677279925e-01, -2.371237630800557272e-01
1.199999999999999956e-01, -2.311085916985096134e-01, -2.336730798211586746e-01
1.209999999999999964e-01, -2.276476012401657811e-01, -2.302230302262057160e-01
1.219999999999999973e-01, -2.241882475582059886e-01, -2.267742108136880652e-01
1.229999999999999982e-01, -2.207311306342607249e-01, -2.233272178829771859e-01
1.239999999999999991e-01, -2.172768500620231857e-01, -2.198826474099188077e-01
1.250000000000000000e-01, -2.138260049432567089e-01, -2.164410949424513675e-01
1.260000000000000009e-01, -2.103791937838882520e-01, -2.130031554962631413e-01
1.270000000000000018e-01, -2.069370143902049541e-01, -2.095694234505005027e-01
1.280000000000000027e-01, -2.035000637651719901e-01, -2.061404924435361052e-01
1.290000000000000036e-01, -2.000689380048900623e-01, -2.027169552688241616e-01
1.300000000000000044e-01, -1.966442321952101002e-01, -1.992994037708381017e-01
1.310000000000000053e-01, -1.932265403085228483e-01, -1.958884287411340464e-01
1.320000000000000062e-01, -1.898164551007416323e-01, -1.924846198145243048e-01
1.330000000000000071e-01, -1.864145680084967061e-01, -1.890885653653838760e-01
1.340000000000000080e-01, -1.830214690465574168e-01, -1.857008524041078024e-01
1.350000000000000089e-01, -1.796377467055020882e-01, -1.823220664737382479e-01
1.360000000000000098e-01, -1.762639878496513046e-01, -1.789527915467431785e-01
1.370000000000000107e-01, -1.729007776152840237e-01, -1.755936099220019864e-01
1.380000000000000115e-01, -1.695486993091521732e-01, -1.722451021219674749e-01
1.390000000000000124e-01, -1.662083343073145203e-01, -1.689078467900402836e-01
1.400000000000000133e-01, -1.628802619543033292e-01, -1.655824205881772093e-01
1.410000000000000142e-01, -1.595650594626447372e-01, -1.622693980946928738e-01
1.420000000000000151e-01, -1.562633018127484452e-01, -1.589693517023093583e-01
1.430000000000000160e-01, -1.529755616531845441e-01, -1.556828515164631055e-01
1.440000000000000169e-01, -1.497024092013646557e-01, -1.524104652538371130e-01
1.449999999999999900e-01, -1.464444121446450420e-01, -1.491527581411655479e-01
1.459999999999999909e-01, -1.432021355418681419e-01, -1.459102928143086730e-01
1.469999999999999918e-01, -1.399761417253603535e-01, -1.426836292175519827e-01
1.479999999999999927e-01, -1.367669902034023000e-01, -1.394733245032370450e-01
1.489999999999999936e-01, -1.335752375631893141e-01, -1.362799329316208841e-01
1.499999999999999944e-01, -1.304014373742984068e-01, -1.331040057710318747e-01
1.509999999999999953e-01, -1.272461400926783726e-01, -1.299460911983014721e-01
1.519999999999999962e-01, -1.241098929651798938e-01, -1.268067341994640329e-01
1.529999999999999971e-01, -1.209932399346431708e-01, -1.236864764707324149e-01
1.539999999999999980e-01, -1.178967215455570539e-01, -1.205858563197707567e-01
1.549999999999999989e-01, -1.148208748503084797e-01, -1.175054085671890514e-01
1.559999999999999998e-01, -1.117662333160380633e-01, -1.144456644483548280e-01
1.570000000000000007e-01, -1.087333267321161645e-01, -1.114071515154268083e-01
1.580000000000000016e-01, -1.057226811182577775e-01, -1.083903935396434981e-01
1.590000000000000024e-01, -1.027348186332911750e-01, -1.053959104138609548e-01
1.600000000000000033e-01, -9.977025748459590615e-02, -1.024242180553146253e-01
1.610000000000000042e-01, -9.682951183822617602e-02, -9.947582830860318692e-02
1.620000000000000051e-01, -9.391309172973513753e-02, -9.655124884887003600e-02
1.630000000000000060e-01, -9.102150297571545701e-02, -9.365098308518955694e-02
1.640000000000000069e-01, -8.815524708607221094e-02, -9.077553006411862024e-02
1.650000000000000078e-01, -8.531482117704183854e-02, -8.792538437341407276e-02
1.660000000000000087e-01, -8.250071788497362335e-02, -8.510103604589711046e-02
1.670000000000000095e-01, -7.971342528088833090e-02, -8.230297046345132206e-02
1.680000000000000104e-01, -7.695342678582817175e-02, -7.953166826113262922e-02
1.690000000000000113e-01, -7.422120108701332764e-02, -7.678760523138064564e-02
1.700000000000000122e-01, -7.151722205481980676e-02, -7.407125222832484923e-02
1.710000000000000131e-01, -6.884195866059279745e-02, -7.138307507216548609e-02
1.720000000000000140e-01, -6.619587489530917579e-02, -6.872353445362755497e-02
1.730000000000000149e-01, -6.357942968910405834e-02, -6.609308583850001528e-02
1.740000000000000158e-01, -6.099307683167511096e-02, -6.349217937224339858e-02
1.750000000000000167e-01, -5.843726489357850551e-02, -6.092125978468308778e-02
1.759999999999999898e-01, -5.591243714842999285e-02, -5.838076629484396929e-02
1.769999999999999907e-01, -5.341903149602467149e-02, -5.587113251592416147e-02
1.779999999999999916e-01, -5.095748038638832356e-02, -5.339278636048049032e-02
1.789999999999999925e-01, -4.852821074477499386e-02, -5.094614994591640383e-02
1.799999999999999933e-01, -4.613164389762162282e-02, -4.853163950035532109e-02
1.809999999999999942e-01, -4.376819549947443683e-02, -4.614966526904006050e-02
1.819999999999999951e-01, -4.143827546089910718e-02, -4.380063142146474464e-02
1.829999999999999960e-01, -3.914228787738660564e-02, -4.148493595942459589e-02
1.839999999999999969e-01, -3.688063095926775309e-02, -3.920297062632933927e-02
1.849999999999999978e-01, -3.465369696264893745e-02, -3.695512081812574179e-02
1.859999999999999987e-01, -3.246187212138013090e-02, -3.474176549634827582e-02
1.869999999999999996e-01, -3.030553658006748807e-02, -3.256327710388290386e-02
1.880000000000000004e-01, -2.818506432814182200e-02, -3.042002148425894392e-02
1.890000000000000013e-01, -2.610082313499498957e-02, -2.831235780546868114e-02
1.900000000000000022e-01, -2.405317448619495591e-02, -2.624063848956351142e-02
1.910000000000000031e-01, -2.204247352079023725e-02, -2.420520914968130738e-02
1.920000000000000040e-01, -2.006906896971586557e-02, -2.220640853653597577e-02
1.930000000000000049e-01, -1.813330309531039491e-02, -2.024456849698115860e-02
1.940000000000000058e-01, -1.623551163195444819e-02, -1.832001394792881835e-02
1.950000000000000067e-01, -1.437602372784209381e-02, -1.643306286975564079e-02
1.960000000000000075e-01, -1.255516188789410764e-02, -1.458402632429242271e-02
1.970000000000000084e-01, -1.077324191782362550e-02, -1.277320850366090929e-02
1.980000000000000093e-01, -9.030572869363359678e-03, -1.100090681740223744e-02
1.990000000000000102e-01, -7.327456986664628025e-03, -9.267412026429888705e-03
2.000000000000000111e-01, -5.664189653876855468e-03, -7.573008432846788790e-03
2.010000000000000120e-01, -4.041059343916644786e-03, -5.917974133980000162e-03
2.020000000000000129e-01, -2.458347568436228259e-03, -4.302581345522752537e-03
2.030000000000000138e-01, -9.163288289984611312e-04, -2.727096790461068163e-03
2.040000000000000147e-01, 5.847294305319356011e-04, -1.191782134208109641e-03
2.050000000000000155e-01, 2.044566870373368261e-03, 3.031055812853147152e-04
2.060000000000000164e-01, 3.462930299979752324e-03, 1.757313591978764116e-03
2.070000000000000173e-01, 4.839573721953260854e-03, 3.170593289128820907e-03
2.080000000000000182e-01, 6.174258374709834518e-03, 4.542700486529981443e-03
2.089999999999999913e-01, 7.466752773888911399e-03, 5.873396226417065130e-03
2.099999999999999922e-01, 8.716832752501988552e-03, 7.162448171139196643e-03
2.109999999999999931e-01, 9.924281499811206386e-03, 8.409632453586024861e-03
2.119999999999999940e-01, 1.108888959893269271e-02, 9.614735693305549377e-03
2.129999999999999949e-01, 1.221045506315707532e-02, 1.077755683174210291e-02
2.139999999999999958e-01, 1.328878337098170215e-02, 1.189790853451721045e-02
2.149999999999999967e-01, 1.432368749984805345e-02, 1.297561808098718870e-02
2.159999999999999976e-01, 1.531498795857803505e-02, 1.401052780476766228e-02
2.169999999999999984e-01, 1.626251281850551317e-02, 1.500249520741641848e-02
2.179999999999999993e-01, 1.716609774329393157e-02, 1.595139285274643770e-02
2.190000000000000002e-01, 1.802558601743876193e-02, 1.685710810173608049e-02
2.200000000000000011e-01, 1.884082857344831358e-02, 1.771954270122792427e-02
2.210000000000000020e-01, 1.961168401769737557e-02, 1.853861220937907603e-02
2.220000000000000029e-01, 2.033801865495004496e-02, 1.931424523040216681e-02
2.230000000000000038e-01, 2.101970651154760894e-02, 2.004638243743040588e-02
2.240000000000000047e-01, 2.165662935725701926e-02, 2.073497537977172026e-02
2.250000000000000056e-01, 2.224867672577647906e-02, 2.137998509335781172e-02
2.260000000000000064e-01, 2.279574593389468301e-02, 2.198138055577909117e-02
2.270000000000000073e-01, 2.329774209929942261e-02, 2.253913704673058890e-02
2.280000000000000082e-01, 2.375457815703422432e-02, 2.305323448966609123e-02
2.290000000000000091e-01, 2.416617487459851721e-02, 2.352365586014996957e-02
2.300000000000000100e-01, 2.453246086568918946e-02, 2.395038574909100909e-02
2.310000000000000109e-01, 2.485337260258227779e-02, 2.433340916249427180e-02
2.320000000000000118e-01, 2.512885442715048767e-02, 2.467271062244610208e-02
2.330000000000000127e-01, 2.535885856051678031e-02, 2.496827360845371713e-02
2.340000000000000135e-01, 2.554334511134080665e-02, 2.522008034870171916e-02
2.350000000000000144e-01, 2.568228208273774446e-02, 2.542811194312184081e-02
2.360000000000000153e-01, 2.577564537782739418e-02, 2.559234877904965899e-02
2.370000000000000162e-01, 2.582341880391403680e-02, 2.571277118749269036e-02
2.380000000000000171e-01, 2.582559407529434400e-02, 2.578936028249713061e-02
2.390000000000000180e-01, 2.578217081469473884e-02, 2.582209892477132368e-02
2.399999999999999911e-01, 2.569315655333661436e-02, 2.581097275008507885e-02
2.409999999999999920e-01, 2.555856672963043724e-02, 2.575597120061110662e-02
2.419999999999999929e-01, 2.537842468649775807e-02, 2.565708849285823490e-02
2.429999999999999938e-01, 2.515276166732303628e-02, 2.551432445121767228e-02
2.439999999999999947e-01, 2.488161681053454102e-02, 2.532768513556375722e-02
2.449999999999999956e-01, 2.456503714281664183e-02, 2.509718319995226168e-02
2.459999999999999964e-01, 2.420307757095324641e-02, 2.482283794127235557e-02
2.469999999999999973e-01, 2.379580087230520960e-02, 2.450467503250172707e-02
2.479999999999999982e-01, 2.334327768392198757e-02, 2.414272598097239736e-02
