# time, ED spin correlation, NQS regularization spin correlation, NQS diagonalization spin correlation, NQS geometric spin correlation
-2.000000000000000042e-03, -5.000000000000003331e-01, -5.000000000000002220e-01, -5.000000000000002220e-01, -5.000000000000002220e-01
0.000000000000000000e+00, -4.999040061438424498e-01, -5.000204596428255988e-01, -5.000205157464130412e-01, -5.000210478212894216e-01
2.000000000000000042e-03, -4.996160982939331641e-01, -5.000874662903305179e-01, -5.000876595899230725e-01, -5.000895407549791338e-01
4.000000000000000083e-03, -4.991364975493505218e-01, -5.002020536861057076e-01, -5.002024200619493710e-01, -5.002061722599095983e-01
6.000000000000000125e-03, -4.984655722198935712e-01, -5.003640760843987012e-01, -5.003646372539831688e-01, -5.003706701345869146e-01
8.000000000000000167e-03, -4.976038375432392247e-01, -5.005734332376109430e-01, -5.005742047884292889e-01, -5.005828675187286025e-01
1.000000000000000021e-02, -4.965519552892638244e-01, -5.008300367356841587e-01, -5.008310307641683501e-01, -5.008426321424059857e-01
1.200000000000000025e-02, -4.953107332518378314e-01, -5.011337881443398423e-01, -5.011350144478401436e-01, -5.011498333241741765e-01
1.400000000000000029e-02, -4.938811246284790513e-01, -5.014845710608061280e-01, -5.014860377845435924e-01, -5.015043293176632000e-01
1.600000000000000033e-02, -4.922642272883435144e-01, -5.018822482323183065e-01, -5.018839622598532113e-01, -5.019059620296797419e-01
1.800000000000000211e-02, -4.904612829291173925e-01, -5.023266605520516626e-01, -5.023286277626741736e-01, -5.023545546329535316e-01
2.000000000000000042e-02, -4.884736761234519942e-01, -5.028176267878406991e-01, -5.028198522292525174e-01, -5.028499104374137829e-01
2.199999999999999872e-02, -4.863029332556815798e-01, -5.033549436131098398e-01, -5.033574316288601525e-01, -5.033918123543116296e-01
2.400000000000000050e-02, -4.839507213496352378e-01, -5.039383857604153860e-01, -5.039411400839631794e-01, -5.039800226597195287e-01
2.600000000000000228e-02, -4.814188467884438771e-01, -5.045677062260924828e-01, -5.045707300528177175e-01, -5.046142829205306768e-01
2.800000000000000058e-02, -4.787092539273266611e-01, -5.052426364924026414e-01, -5.052459325361585707e-01, -5.052943140115409015e-01
2.999999999999999889e-02, -4.758240236004232515e-01, -5.059628867553132014e-01, -5.059664572925627324e-01, -5.060198161890110402e-01
3.200000000000000067e-02, -4.727653715228128384e-01, -5.067281461510749763e-01, -5.067319930576226206e-01, -5.067904691995521738e-01
3.400000000000000244e-02, -4.695356465889559683e-01, -5.075380829820084205e-01, -5.075422077630986628e-01, -5.076059324130810513e-01
3.600000000000000422e-02, -4.661373290688588522e-01, -5.083923449407008466e-01, -5.083967487553274767e-01, -5.084658449748925557e-01
3.799999999999999906e-02, -4.625730287033470445e-01, -5.092905593334412506e-01, -5.092952430162928090e-01, -5.093698259703635101e-01
4.000000000000000083e-02, -4.588454826999127101e-01, -5.102323333047829035e-01, -5.102372973837369097e-01, -5.103174746022124397e-01
4.200000000000000261e-02, -4.549575536306754153e-01, -5.112172540634299933e-01, -5.112224987751942118e-01, -5.113083703777313582e-01
4.399999999999999745e-02, -4.509122272340654325e-01, -5.122448891100768176e-01, -5.122504144138215754e-01, -5.123420733054945275e-01
4.599999999999999922e-02, -4.467126101219248135e-01, -5.133147864694970197e-01, -5.133205920589837268e-01, -5.134181241007714780e-01
4.800000000000000100e-02, -4.423619273937813290e-01, -5.144264749258442571e-01, -5.144325602399731912e-01, -5.145360443993477473e-01
5.000000000000000278e-02, -4.378635201601308036e-01, -5.155794642635257441e-01, -5.155858284954352166e-01, -5.156953369794710085e-01
5.200000000000000455e-02, -4.332208429766286062e-01, -5.167732455115251478e-01, -5.167798876173865796e-01, -5.168954859919505651e-01
5.399999999999999939e-02, -4.284374611911607178e-01, -5.180072911947977143e-01, -5.180142099018264501e-01, -5.181359571978325640e-01
5.600000000000000117e-02, -4.235170482058318586e-01, -5.192810555903457637e-01, -5.192882494036072938e-01, -5.194161982140104161e-01
5.800000000000000294e-02, -4.184633826559726599e-01, -5.205939749893517821e-01, -5.206014421986114860e-01, -5.207356387666560726e-01
5.999999999999999778e-02, -4.132803455083335908e-01, -5.219454679662713925e-01, -5.219532066516535673e-01, -5.220936909511396662e-01
6.199999999999999956e-02, -4.079719170806941908e-01, -5.233349356525930363e-01, -5.233429436906709142e-01, -5.234897495014345647e-01
6.400000000000000133e-02, -4.025421739851737235e-01, -5.247617620185442977e-01, -5.247700370875871823e-01, -5.249231920649506389e-01
6.600000000000000311e-02, -3.969952859975937054e-01, -5.262253141601556106e-01, -5.262338537451054510e-01, -5.263933794853927761e-01
6.800000000000000488e-02, -3.913355128552948314e-01, -5.277249425930286009e-01, -5.277337439904909999e-01, -5.278996560932759374e-01
7.000000000000000666e-02, -3.855672009858685523e-01, -5.292599815528766793e-01, -5.292690418753426274e-01, -5.294413500025452191e-01
7.200000000000000844e-02, -3.796947801693134616e-01, -5.308297493017006818e-01, -5.308390654824303168e-01, -5.310177734150492990e-01
7.399999999999999634e-02, -3.737227601361829410e-01, -5.324335484414891573e-01, -5.324431172382336763e-01, -5.326282229314723837e-01
7.599999999999999811e-02, -3.676557271043334185e-01, -5.340706662324021803e-01, -5.340804842320513446e-01, -5.342719798690120925e-01
7.799999999999999989e-02, -3.614983402569338367e-01, -5.357403749195390752e-01, -5.357504385420280846e-01, -5.359483105858732221e-01
8.000000000000000167e-02, -3.552553281644430516e-01, -5.374419320639121089e-01, -5.374522375656640705e-01, -5.376564668122447710e-01
8.200000000000000344e-02, -3.489314851532995254e-01, -5.391745808809542684e-01, -5.391851243587767462e-01, -5.393956859868146436e-01
8.400000000000000522e-02, -3.425316676241139668e-01, -5.409375505831923725e-01, -5.409483279783739995e-01, -5.411651916016262387e-01
8.600000000000000699e-02, -3.360607903221933812e-01, -5.427300567308949164e-01, -5.427410638326591874e-01, -5.429641935505256090e-01
8.799999999999999489e-02, -3.295238225632570184e-01, -5.445513015869624107e-01, -5.445625340361517353e-01, -5.447918884854060506e-01
8.999999999999999667e-02, -3.229257844172470082e-01, -5.464004744782393619e-01, -5.464119277709109657e-01, -5.466474601771402764e-01
9.199999999999999845e-02, -3.162717428531608976e-01, -5.482767521618613360e-01, -5.482884216524415155e-01, -5.485300798827954516e-01
9.400000000000000022e-02, -3.095668078478688301e-01, -5.501792991971107272e-01, -5.501911801022854043e-01, -5.504389067181753026e-01
9.600000000000000200e-02, -3.028161284619021454e-01, -5.521072683225913824e-01, -5.521193557247409123e-01, -5.523730880355173234e-01
9.800000000000000377e-02, -2.960248888852287652e-01, -5.540598008383528228e-01, -5.540720896889055336e-01, -5.543317598070194308e-01
1.000000000000000056e-01, -2.891983044560491045e-01, -5.560360269929379706e-01, -5.560485121158149635e-01, -5.563140470120754300e-01
1.020000000000000073e-01, -2.823416176556727275e-01, -5.580350663752285945e-01, -5.580477424703327305e-01, -5.583190640309734221e-01
1.040000000000000091e-01, -2.754600940825513433e-01, -5.600560283109333737e-01, -5.600688899573990076e-01, -5.603459150419812795e-01
1.059999999999999970e-01, -2.685590184085573373e-01, -5.620980122633660869e-01, -5.621110539228064695e-01, -5.623936944236762603e-01
1.079999999999999988e-01, -2.616436903206149633e-01, -5.641601082387027732e-01, -5.641733242594512143e-01, -5.644614871609632267e-01
1.100000000000000006e-01, -2.547194204508025361e-01, -5.662413971947970470e-01, -5.662547818147537493e-01, -5.665483692569128760e-01
1.120000000000000023e-01, -2.477915262980466549e-01, -5.683409514550722408e-01, -5.683544988047591895e-01, -5.686534081454449607e-01
1.140000000000000041e-01, -2.408653281445458372e-01, -5.704578351248590362e-01, -5.704715392312562638e-01, -5.707756631108098500e-01
1.160000000000000059e-01, -2.339461449700542539e-01, -5.725911045122291654e-01, -5.726049593019260087e-01, -5.729141857093329460e-01
1.180000000000000077e-01, -2.270392903671666629e-01, -5.747398085509825005e-01, -5.747538078538444450e-01, -5.750680201946201109e-01
1.199999999999999956e-01, -2.201500684607410607e-01, -5.769029892292757422e-01, -5.769171267820655258e-01, -5.772362039458248661e-01
1.219999999999999973e-01, -2.132837698345913802e-01, -5.790796820183631288e-01, -5.790939514674420252e-01, -5.794177679010015236e-01
1.239999999999999991e-01, -2.064456674685787863e-01, -5.812689163060470454e-01, -5.812833112115664003e-01, -5.816117369887812139e-01
1.260000000000000009e-01, -1.996410126892227965e-01, -5.834697158321734412e-01, -5.834842296710601728e-01, -5.838171305674383360e-01
1.280000000000000027e-01, -1.928750311369398229e-01, -5.856810991265113397e-01, -5.856957252960058868e-01, -5.860329628640736921e-01
1.300000000000000044e-01, -1.861529187530090723e-01, -5.879020799497011174e-01, -5.879168117704768326e-01, -5.882582434159024931e-01
1.320000000000000062e-01, -1.794798377893444541e-01, -5.901316677345574968e-01, -5.901464984547276638e-01, -5.904919775150573313e-01
1.340000000000000080e-01, -1.728609128441395693e-01, -5.923688680309053822e-01, -5.923837908298253963e-01, -5.927331666539208399e-01
1.360000000000000098e-01, -1.663012269264267928e-01, -5.946126829513934675e-01, -5.946276909413454881e-01, -5.949808089721667637e-01
1.380000000000000115e-01, -1.598058175525777780e-01, -5.968621116188518316e-01, -5.968771978502752651e-01, -5.972338997067050403e-01
1.400000000000000133e-01, -1.533796728777374052e-01, -5.991161506148701132e-01, -5.991313080793300161e-01, -5.994914316407373711e-01
1.420000000000000151e-01, -1.470277278651663799e-01, -6.013737944296141391e-01, -6.013890160626096382e-01, -6.017523955564944016e-01
1.440000000000000169e-01, -1.407548604964311556e-01, -6.036340359122737143e-01, -6.036493145986623343e-01, -6.040157806847283872e-01
1.459999999999999909e-01, -1.345658880253551015e-01, -6.058958667227317685e-01, -6.059111952980940075e-01, -6.062805751612493355e-01
1.479999999999999927e-01, -1.284655632786035340e-01, -6.081582777828310471e-01, -6.081736490381687288e-01, -6.085457664772564446e-01
1.499999999999999944e-01, -1.224585710057461974e-01, -6.104202597287027299e-01, -6.104356664130430321e-01, -6.108103419341911478e-01
1.519999999999999962e-01, -1.165495242816003835e-01, -6.126808033628965422e-01, -6.126962381875757924e-01, -6.130732890970017612e-01
1.539999999999999980e-01, -1.107429609636166601e-01, -6.149389001063242377e-01, -6.149543557482315403e-01, -6.153335962477070042e-01
1.559999999999999998e-01, -1.050433402070261313e-01, -6.171935424499401801e-01, -6.172090115550560308e-01, -6.175902528384075163e-01
1.580000000000000016e-01, -9.945503904042926613e-02, -6.194437244060561065e-01, -6.194591995927293260e-01, -6.198422499440603417e-01
1.600000000000000033e-01, -9.398234900445281981e-02, -6.216884419579631338e-01, -6.217039158212367411e-01, -6.220885807142093604e-01
1.620000000000000051e-01, -8.862947285605761449e-02, -6.239266935113337853e-01, -6.239421586250619711e-01, -6.243282408236420222e-01
1.640000000000000069e-01, -8.340052134102787784e-02, -6.261574803401674938e-01, -6.261729292617762566e-01, -6.265602289227415467e-01
1.660000000000000087e-01, -7.829951003712014301e-02, -6.283798070357181631e-01, -6.283952323088692893e-01, -6.287835470847766839e-01
1.680000000000000104e-01, -7.333035627029751979e-02, -6.305926819506891823e-01, -6.306080761093634246e-01, -6.309972012546444242e-01
1.700000000000000122e-01, -6.849687610641558289e-02, -6.327951176440920200e-01, -6.328104732156546453e-01, -6.332002016915415643e-01
1.720000000000000140e-01, -6.380278142067047353e-02, -6.349861313217018965e-01, -6.350014408311132064e-01, -6.353915634135033352e-01
1.740000000000000158e-01, -5.925167704706311989e-02, -6.371647452774964471e-01, -6.371800012500584698e-01, -6.375703066383124895e-01
1.759999999999999898e-01, -5.484705801006205944e-02, -6.393299873298825542e-01, -6.393451822949488550e-01, -6.397354572217774926e-01
1.779999999999999916e-01, -5.059230684059733835e-02, -6.414808912569113231e-01, -6.414960177521576989e-01, -6.418860470937597373e-01
1.799999999999999933e-01, -4.649069097844296672e-02, -6.436164972282290009e-01, -6.436315478010391500e-01, -6.440211146918021212e-01
1.819999999999999951e-01, -4.254536026298362528e-02, -6.457358522349644359e-01, -6.457508194478577268e-01, -6.461397053911426269e-01
1.839999999999999969e-01, -3.875934451429290800e-02, -6.478380105153120905e-01, -6.478528869482303998e-01, -6.482408719322457769e-01
1.859999999999999987e-01, -3.513555120638043455e-02, -6.499220339769350430e-01, -6.499368122318071039e-01, -6.503236748446743487e-01
1.880000000000000004e-01, -3.167676323439438252e-02, -6.519869926176332653e-01, -6.520016653210898294e-01, -6.523871828673930562e-01
1.900000000000000022e-01, -2.838563677749524061e-02, -6.540319649401821200e-01, -6.540465247466905607e-01, -6.544304733657466677e-01
1.920000000000000040e-01, -2.526469925904055447e-02, -6.560560383644413740e-01, -6.560704779605612824e-01, -6.564526327439128561e-01
1.940000000000000058e-01, -2.231634740564825484e-02, -6.580583096352223826e-01, -6.580726217424032187e-01, -6.584527568541053144e-01
1.960000000000000075e-01, -1.954284540662799136e-02, -6.600378852258207418e-01, -6.600520626039022565e-01, -6.604299514007622163e-01
1.980000000000000093e-01, -1.694632317519538869e-02, -6.619938817375415896e-01, -6.620079171880129953e-01, -6.623833323408109264e-01
2.000000000000000111e-01, -1.452877471280315802e-02, -6.639254262939364715e-01, -6.639393126640528164e-01, -6.643120262790629393e-01
2.020000000000000129e-01, -1.229205657784623179e-02, -6.658316569310591682e-01, -6.658453871153016124e-01, -6.662151708589711951e-01
2.040000000000000147e-01, -1.023788645991574424e-02, -6.677117229821681876e-01, -6.677252899274358500e-01, -6.680919151484150387e-01
2.060000000000000164e-01, -8.367841860698265258e-03, -6.695647854581910918e-01, -6.695781821662445399e-01, -6.699414200201004865e-01
2.080000000000000182e-01, -6.683358882532042591e-03, -6.713900174216764771e-01, -6.714032369525563260e-01, -6.717628585270195574e-01
2.099999999999999922e-01, -5.185731125550409326e-03, -6.731866043561769430e-01, -6.731996398316825170e-01, -6.735554162722178217e-01
2.119999999999999940e-01, -3.876108694261527678e-03, -6.749537445302395966e-01, -6.749665891369852622e-01, -6.753182917729657619e-01
2.139999999999999958e-01, -2.755497314323625702e-03, -6.766906493548798807e-01, -6.767032963471868445e-01, -6.770506968192080421e-01
2.159999999999999976e-01, -1.824757560197713072e-03, -6.783965437357210027e-01, -6.784089864392334190e-01, -6.787518568258685825e-01
2.179999999999999993e-01, -1.084604194268109275e-03, -6.800706664188038708e-01, -6.800828982335597184e-01, -6.804210111792700078e-01
2.200000000000000011e-01, -5.356056179411272829e-04, -6.817122703304731024e-01, -6.817242847337381395e-01, -6.820574135771958479e-01
2.220000000000000029e-01, -1.781834351393314121e-04, -6.833206229097573692e-01, -6.833324134600281541e-01, -6.836603323623448025e-01
2.240000000000000047e-01, -1.261212853210980477e-05, -6.848950064365422197e-01, -6.849065667756596421e-01, -6.852290508496844401e-01
2.260000000000000064e-01, -3.901884874452612230e-05, -6.864347183507099048e-01, -6.864460422073136447e-01, -6.867628676478090277e-01
2.280000000000000082e-01, -2.573833167133876922e-04, -6.879390715658084687e-01, -6.879501527583549159e-01, -6.882610969672153800e-01
2.300000000000000100e-01, -6.675378392601528585e-04, -6.894073947752132892e-01, -6.894182272150066737e-01, -6.897230689348505805e-01
2.320000000000000118e-01, -1.269167437870925364e-03, -6.908390327516257257e-01, -6.908496104458340392e-01, -6.911481298881239077e-01
2.340000000000000135e-01, -2.061810090584402250e-03, -6.922333466389803958e-01, -6.922436636936141197e-01, -6.925356426682193201e-01
2.360000000000000153e-01, -3.044857086802451283e-03, -6.935897142374177760e-01, -6.935997648601144316e-01, -6.938849869047749586e-01
2.380000000000000171e-01, -4.217553494749413934e-03, -6.949075302801501763e-01, -6.949173087834209506e-01, -6.951955592937140160e-01
2.399999999999999911e-01, -5.578998741222758462e-03, -6.961862067041867386e-01, -6.961957075077154222e-01, -6.964667738655524465e-01
2.419999999999999929e-01, -7.128147303189346501e-03, -6.974251729110442222e-01, -6.974343905448059378e-01, -6.976980622482322758e-01
2.439999999999999947e-01, -8.863809510695236371e-03, -6.986238760218560495e-01, -6.986328051291322838e-01, -6.988888739206599032e-01
2.459999999999999964e-01, -1.078465246047456000e-02, -6.997817811232672769e-01, -6.997904164636616908e-01, -7.000386764585074806e-01
2.479999999999999982e-01, -1.288920103955220470e-02, -7.008983715060345121e-01, -7.009067079570325820e-01, -7.011469557725528157e-01
2.500000000000000000e-01, -1.517583905805989890e-02, -7.019731488949645382e-01, -7.019811814557016527e-01, -7.022132163364717128e-01
2.520000000000000018e-01, -1.764281049038950167e-02, -7.030056336708073728e-01, -7.030133574644680250e-01, -7.032369814130640107e-01
2.540000000000000036e-01, -2.028822082373422930e-02, -7.039953650840470312e-01, -7.040027753603954608e-01, -7.042177932602601276e-01
2.560000000000000053e-01, -2.311003851298183004e-02, -7.049419014598710120e-01, -7.049489935978786592e-01, -7.051552133403411471e-01
2.580000000000000071e-01, -2.610609654084148495e-02, -7.058448203949418964e-01, -7.058515899053465770e-01, -7.060488225144228025e-01
2.600000000000000089e-01, -2.927409408200630503e-02, -7.067037189454777879e-01, -7.067101614734572212e-01, -7.068982212297814094e-01
2.620000000000000107e-01, -3.261159827007413525e-02, -7.075182138067130921e-01, -7.075243251337950401e-01, -7.077030296981187130e-01
2.640000000000000124e-01, -3.611604606586955174e-02, -7.082879414835601128e-01, -7.082937175305188404e-01, -7.084628880653215388e-01
2.660000000000000142e-01, -3.978474622573125591e-02, -7.090125584523252478e-01, -7.090179952814835707e-01, -7.091774565721546963e-01
2.680000000000000160e-01, -4.361488136825584366e-02, -7.096917413138741360e-01, -7.096968351322296975e-01, -7.098464157058360646e-01
2.700000000000000178e-01, -4.760351013790788122e-02, -7.103251869375870609e-01, -7.103299340963817876e-01, -7.104694663430370927e-01
2.720000000000000195e-01, -5.174756946383638617e-02, -7.109126125962118570e-01, -7.109170095959774782e-01, -7.110463298831910528e-01
2.740000000000000213e-01, -5.604387691216270589e-02, -7.114537560921222470e-01, -7.114577995837204627e-01, -7.115767483730933707e-01
2.760000000000000231e-01, -6.048913312993321745e-02, -7.119483758739364454e-01, -7.119520626606210545e-01, -7.120604846221265660e-01
2.780000000000000249e-01, -6.507992437886021830e-02, -7.123962511439519973e-01, -7.123995781835948948e-01, -7.124973223080173224e-01
2.800000000000000266e-01, -6.981272515690534197e-02, -7.127971819565542821e-01, -7.128001463637793078e-01, -7.128870660739736742e-01
2.820000000000000284e-01, -7.468390090569185236e-02, -7.131509893075589357e-01, -7.131535883556407995e-01, -7.132295416153937584e-01
2.840000000000000302e-01, -7.968971080166643850e-02, -7.134575152140781862e-01, -7.134597463367118308e-01, -7.135245957583287169e-01
2.860000000000000320e-01, -8.482631062886830664e-02, -7.137166227854762068e-01, -7.137184835780204795e-01, -7.137720965271905360e-01
2.880000000000000338e-01, -9.008975573109768986e-02, -7.139281962832048078e-01, -7.139296845051694707e-01, -7.139719332046423617e-01
2.899999999999999800e-01, -9.547600404121847628e-02, -7.140921411737672919e-01, -7.140932547500067340e-01, -7.141240163807467400e-01
2.919999999999999818e-01, -1.009809191852666654e-01, -7.142083841700096469e-01, -7.142091211928650596e-01, -7.142282779928406100e-01
